# 181 data with intensity information, current angle: -13.7472
872 0 872 10215
61.68 62.766 88 10215
61.8246 64.0212 89 10233
61.2636 64.5583 89 10224
61.3799 65.8218 90 10224
61.4787 67.0922 91 10215
61.56 68.3693 92 10205
62.2863 70.4018 94 10205
61.6695 70.9427 94 10195
61.6976 72.2386 95 10186
62.3504 74.3063 97 10168
62.3357 75.6192 98 10177
62.3027 76.9375 99 10158
62.2515 78.2608 100 10168
62.7975 80.3771 102 10177
62.7024 81.7154 103 10168
62.5888 83.0581 104 10168
62.4564 84.405 105 10158
62.3052 85.7558 106 10168
62.7159 87.9245 108 10158
63.0934 90.1067 110 10168
63.4375 92.3021 112 10139
62.6296 92.8522 112 10092
62.9208 95.063 114 10045
60.9996 93.9311 112 9585
60.7149 95.3032 113 9558
57.2313 91.5892 108 9136
56.9523 92.9378 109 8979
53.564 89.1454 104 8979
53.2915 90.4711 105 8989
51 88.3346 102 9007
50.7196 89.6466 103 9007
48.481 87.462 100 9025
48.193 88.7605 101 9043
46.0082 86.5289 98 9034
45.2514 86.9271 98 9061
43.5831 85.5366 96 9052
43.2812 86.8086 97 9070
39.4534 80.8915 90 9052
38.746 81.2327 90 9070
37.1904 79.7551 88 9089
36.493 80.0766 88 9043
35.3861 79.4785 87 9240
35.0899 80.7013 88 9193
33.9936 80.0839 87 9193
33.6761 81.3014 88 9193
32.9654 81.5922 88 9174
32.2521 81.8767 88 9145
31.178 81.2215 87 9145
30.8182 82.4272 88 9174
31.8079 87.3914 93 9479
32.0455 90.4936 96 9277
33.8591 98.3339 104 9333
34.2689 102.419 108 9230
33.9919 104.616 110 9324
33.679 106.816 112 9221
32.1609 105.194 110 9249
31.5257 106.429 111 9258
30.5957 106.7 111 9268
29.9307 107.927 112 9296
28.7289 107.218 111 9202
27.7922 107.464 111 9240
26.8533 107.703 111 9277
25.9124 107.933 111 9249
24.2947 105.232 108 9370
24.0248 108.369 111 9315
23.494 110.531 113 9792
23.1267 113.671 116 9379
22.5155 115.832 118 8952
21.8683 117.991 120 8962
20.6641 117.192 119 8901
19.4756 116.382 118 8910
18.3028 115.56 117 8934
17.4415 116.704 118 8916
16.4224 116.852 118 8916
15.5326 117.982 119 8943
14.2587 116.128 117 8925
13.358 117.241 118 8925
12.1253 115.365 116 8916
10.1596 105.512 106 9379
9.15135 104.6 105 9324
8.15975 103.679 104 9773
7.25467 103.747 104 9585
6.34905 103.806 104 10195
5.49528 104.856 105 10186
4.62366 105.899 106 10186
3.69935 105.935 106 10017
2.80093 106.963 107 10008
1.88486 107.984 108 9575
0.959919 109.996 110 9333
7.04149e-15 115 115 8934
-1.021 116.996 117 8943
-2.00703 114.982 115 8925
-3.0627 116.96 117 8934
-4.01344 114.93 115 8934
-5.10347 116.889 117 8943
-6.07097 115.841 116 8934
-7.14268 116.782 117 8934
-8.02199 114.72 115 8934
-9.17971 116.639 117 8916
-10.1101 115.559 116 8925
-11.214 116.461 117 8925
-12.2298 116.359 117 8916
-13.358 117.241 118 8925
-14.2587 116.128 117 8943
-15.4021 116.99 118 8916
-16.2833 115.861 117 8934
-17.5893 117.693 119 8934
-18.4593 116.547 118 8952
-19.6407 117.368 119 8934
-20.4905 116.207 118 8952
-21.8683 117.991 120 8970
-22.5155 115.832 118 8989
-23.1267 113.671 116 9416
-23.7019 111.509 114 9700
-24.6741 111.298 114 10045
-25.4195 110.104 113 10063
-26.1459 108.905 112 10177
-27.0953 108.673 112 10139
-27.7922 107.464 111 10195
-28.7289 107.218 111 10195
-29.3962 105.999 110 10233
-30.3201 105.739 110 9838
-30.9577 104.511 109 9646
-32.7456 107.106 112 9089
-35.784 113.492 119 8925
-37.7001 116.029 122 8943
-39.3458 117.592 124 8962
-39.7193 115.353 122 8962
-41.7259 117.83 125 8943
-42.0685 115.582 123 8916
-43.7759 117.084 125 8962
-44.4376 115.764 124 8952
-46.1792 117.233 126 8970
-46.8258 115.898 125 8943
-48.9835 118.257 128 8943
-49.2321 115.984 126 8952
-51.0399 117.384 128 8952
-51.6556 116.02 127 8962
-53.0807 116.475 128 9080
-53.2499 114.195 126 9230
-53.3834 111.921 124 9461
-53.4813 109.653 122 9470
-53.9899 108.287 121 9602
-54.0249 106.03 119 9496
-54.4863 104.667 118 9398
-55.3976 104.188 118 9043
-56.7819 104.579 119 9108
-58.662 105.829 121 8771
-59.5833 105.313 121 8925
-60 103.923 120 9230
-61.4121 104.257 121 9496
-62.8346 104.574 122 9434
-64.2673 104.875 123 9567
-65.1801 104.31 123 9398
-66.6252 104.581 124 9496
-68.0799 104.834 125 9567
-62.3689 94.2291 113 9479
-55.9193 82.9038 100 9425
-56.0742 81.5885 99 9202
-56.2105 80.2769 98 9145
-57.4896 80.5974 99 8910
-58.7785 80.9017 100 8892
-60.6719 81.9934 102 8934
-60.7833 80.6622 101 8925
-62.7024 81.7154 103 8943
-62.7975 80.3771 102 8925
-64.7415 81.3912 104 8952
-64.82 80.046 103 8925
-67.4243 81.7922 106 8989
-68.1355 81.2007 106 9016
-70.1404 82.1238 108 9025
-71.5104 82.2633 109 9043
-72.2256 81.6362 109 9034
-74.2735 82.4891 111 9043
-74.9905 81.8378 111 9034
-76.3838 81.9116 112 9043
-77.7841 81.9673 113 8998
-78.4964 81.2854 113 8989
-79.2027 80.5973 113 8892
-79.196 79.196 112 8882
